TIME (SECONDS),PRESSURE (BARS),5.8 DEGREES,16 DEGREES,40 DEGREES,70 DEGREES,178 DEGREES
-2.6,0.3981,3.353075170842825,6.070460704607046,6.345991561181434,7.314285714285714,-25.54421768707483
0.4,0.4058,2.109090909090909,3.130434782608696,3.361344537815126,3.663299663299663,-35.98639455782313
3.4,0.4136,0.9049773755656108,0.6956521739130435,1.2384937238493725,1.1043771043771045,27.90011350737798
6.4,0.4214,0.8288288288288288,0.5760869565217391,1.1333333333333333,0.9966329966329966,29.024943310657598
9.4,0.4292,0.9348314606741572,0.782608695652174,0.9294605809128632,0.7811447811447811,12.482993197278912
12.4,0.437,0.9664429530201344,0.7391304347826086,0.3298969072164948,0.202020202020202,1.232163080407701
15.4,0.4449,0.7839643652561247,0.6086956521739131,0.3203285420944558,0.1952861952861952,0.9773755656108597
18.4,0.4527,0.7079646017699115,0.5652173913043478,0.3183673469387755,0.1885521885521885,0.903954802259887
21.4,0.4606,0.7400881057268722,0.5869565217391305,0.2920892494929006,0.1747899159663865,0.9390519187358917
24.4,0.4685,0.7017543859649122,0.5434782608695652,0.2983870967741935,0.1747899159663865,0.8468468468468469
28.0,0.478,0.6623093681917211,0.5434782608695652,0.288,0.1677852348993288,0.7730337078651686
32.0,0.4886,0.6565874730021598,0.5217391304347826,0.2619047619047619,0.1742043551088777,0.7516778523489933
36.0,0.4992,0.5481798715203426,0.4456521739130434,0.2593320235756385,0.1669449081803005,0.5172798216276477
40.0,0.5098,0.5180467091295117,0.4456521739130434,0.2723735408560311,0.1666666666666666,0.4439511653718091
44.0,0.5204,0.5221052631578947,0.4336043360433604,0.2774566473988439,0.1661129568106312,0.45916114790286977
48.0,0.5311,0.6012526096033403,0.4878048780487805,0.2819047619047619,0.1721854304635761,0.6498353457738749
52.0,0.5417,0.5289256198347108,0.4432432432432432,0.263653483992467,0.165016501650165,0.4890829694323144
56.0,0.5525,0.556237218813906,0.4540540540540541,0.2681564245810056,0.1710526315789473,0.5206073752711496
60.0,0.5632,0.6477732793522267,0.4959568733153638,0.2799263351749539,0.1833060556464811,0.6724137931034483
64.0,0.574,0.6092184368737475,0.4946236559139785,0.2768670309653916,0.1892332789559543,0.5310492505353319
68.7,0.5865,0.601980198019802,0.5053763440860215,0.2728904847396768,0.1750405186385737,0.49256900212314225
73.7,0.6001,0.5625,0.5254691689008043,0.2756183745583039,0.1806451612903225,0.38696109358569925
78.7,0.6137,0.5240847784200385,0.5561497326203209,0.271304347826087,0.1858974358974359,0.3
83.7,0.6273,0.5171102661596958,0.576,0.2808219178082192,0.1844197138314785,0.2639175257731959
88.7,0.641,0.5692883895131086,0.6153846153846154,0.2765598650927487,0.1895734597156398,0.29357798165137616
93.7,0.6547,0.5608856088560885,0.6243386243386243,0.2852404643449419,0.1755485893416928,0.27419354838709675
98.7,0.6685,0.5818181818181818,0.6754617414248021,0.2805872756933116,0.1928460342146189,0.25523429710867396
103.7,0.6824,0.6021505376344086,0.6719160104986877,0.282051282051282,0.1975308641975308,0.26798029556650244
108.7,0.6963,0.5925925925925926,0.6701570680628273,0.2839116719242902,0.2021439509954058,0.249269717624148
113.7,0.7102,0.6121739130434782,0.6684073107049608,0.2728682170542635,0.1881638846737481,0.24639076034648702
119.3,0.726,0.6564102564102564,0.7064935064935065,0.2796352583586626,0.2045112781954887,0.2884250474383302
125.3,0.7429,0.7248322147651006,0.7441860465116279,0.2742175856929955,0.1904761904761904,0.31401869158878504
131.3,0.7598,0.7116968698517299,0.7403598971722365,0.2744525547445255,0.188235294117647,0.3683241252302026
137.3,0.7769,0.7237479806138933,0.7365728900255755,0.2861230329041488,0.1921397379912663,0.3916591115140526
143.3,0.794,0.8634920634920635,0.8142493638676844,0.2745098039215686,0.1899280575539568,0.3853702051739518
149.3,0.8111,0.7975077881619937,0.7272727272727273,0.2633744855967078,0.1877667140825035,0.421792618629174
155.3,0.8284,0.7828746177370031,0.7236180904522613,0.2584118438761776,0.1856540084388185,0.4290657439446367
161.3,0.8457,0.7687687687687688,0.72,0.2582345191040843,0.1722222222222222,0.46337308347529815
167.3,0.8632,0.8023598820058997,0.7543424317617866,0.2532299741602067,0.1703296703296703,0.4559932942162615
173.3,0.8807,0.8115942028985508,0.7506172839506173,0.2534854245880862,0.1628222523744912,0.5016501650165016
180.0,0.9003,0.7954545454545454,0.7450980392156863,0.2478314745972738,0.1606425702811245,0.4931062449310625
187.0,0.9209,0.7566063977746871,0.7007299270072993,0.2375757575757575,0.1638044914134742,0.4840764331210191
194.0,0.9417,0.7629427792915532,0.6570048309178744,0.2417061611374407,0.1510416666666666,0.4628616106333073
201.0,0.9625,0.7700534759358288,0.6906474820143885,0.2317497103128621,0.1386392811296534,0.5038402457757296
208.0,0.9835,0.837696335078534,0.7238095238095238,0.2312925170068027,0.1265822784810126,0.5675471698113208
215.0,1.005,0.7804878048780488,0.7186761229314421,0.2175360710321864,0.1198501872659176,0.5218680504077094
222.0,1.026,1.0881612090680102,0.97423887587822,0.2391304347826087,0.1182266009852216,0.7463556851311953
229.0,1.047,1.1866501854140914,1.041860465116279,0.2385516506922257,0.1069258809234507,0.8252148997134671
236.0,1.069,1.2427184466019416,1.071593533487298,0.2296450939457202,0.0958083832335329,0.9020436927413672
243.0,1.09,1.296781883194279,1.0275229357798166,0.2292732855680655,0.0945626477541371,0.9757449757449758
250.7,1.114,1.2710280373831775,0.9454545454545454,0.2164328657314629,0.0885780885780885,0.9149081007488087
258.7,1.139,1.17162471395881,0.972972972972973,0.2156862745098039,0.073394495412844,0.8977955911823647
266.7,1.164,1.4365881032547698,1.1812080536912752,0.2226487523992322,0.0723163841807909,1.0498687664041995
274.7,1.19,1.6916299559471366,1.5254988913525498,0.2142857142857142,0.05456570155902,1.1966473243068987
282.7,1.215,1.798918918918919,1.6175824175824176,0.2359447004608295,0.0615384615384615,1.5421686746987953
290.7,1.241,1.8324496288441143,1.5337690631808278,0.2457091237579042,0.0520043336944745,1.5162094763092269
298.7,1.267,1.6016684045881129,1.58963282937365,0.2127659574468085,0.0448717948717948,1.2164316370324955
306.7,1.293,0.9016393442622952,1.098712446351931,0.1705831157528285,0.0442571127502634,0.5890162945081473
314.7,1.319,0.5478348439073515,0.851063829787234,0.1641025641025641,0.0374220374220374,0.38027332144979203
322.7,1.345,0.2021803766105054,0.270042194092827,0.1242653232577665,0.0359342915811088,0.0936768149882904
331.4,1.374,0.2025316455696202,0.2594142259414226,0.1220115416323165,0.0323886639676113,0.10368663594470046
340.4,1.404,0.2181818181818181,0.2821576763485477,0.116504854368932,0.030938123752495,0.15419501133786848
349.4,1.434,0.199623352165725,0.2551440329218107,0.1176470588235294,0.0325123152709359,0.12060301507537688
358.4,1.465,0.2001853568118628,0.261758691206544,0.1094605160281469,0.0408560311284046,0.1342134213421342
367.4,1.496,0.2043795620437956,0.2920892494929006,0.1107692307692307,0.0326609029779058,0.14742547425474256
376.4,1.527,0.2048517520215633,0.3138832997987927,0.1180923542770628,0.0341555977229601,0.17103153393907003
385.4,1.558,0.1842338352524357,0.2954091816367265,0.1132637853949329,0.0346766635426429,0.14345991561181434
394.4,1.589,0.1746724890829694,0.2698412698412698,0.1146216017634092,0.0305838739573679,0.12291666666666666
403.4,1.621,0.193103448275862,0.2677165354330709,0.1072463768115942,0.0357798165137614,0.10082304526748971
412.4,1.653,0.5582978723404255,0.4070450097847358,0.1258041458184417,0.0381125226860254,0.27656329435688864
422.2,1.687,0.215126050420168,0.287378640776699,0.1127554615926709,0.0430879712746858,0.18473895582329317
432.2,1.723,0.1991701244813278,0.2625482625482625,0.1112656467315716,0.041740674955595,0.15873015873015872
442.2,1.759,0.1934426229508196,0.2681992337164751,0.1126373626373626,0.0448548812664907,0.14909269249632173
452.2,1.796,0.1977309562398703,0.2666666666666666,0.1112618724559023,0.0478677110530896,0.13973799126637554
462.2,1.833,0.2019230769230769,0.2651515151515151,0.1153588195841717,0.0552200172562553,0.14601344860710855
472.2,1.87,0.1966693100713719,0.2711864406779661,0.1167883211678832,0.058169375534645,0.1598477640342531
482.2,1.907,0.1981132075471698,0.2696629213483146,0.1208935611038107,0.0611205432937181,0.15080113100848255
492.2,1.944,0.1993769470404984,0.2761194029850746,0.1223162003903708,0.067396798652064,0.14953271028037382
502.2,1.982,0.1978361669242658,0.2820037105751391,0.1212903225806451,0.0802675585284281,0.14093648585999072
512.2,2.02,0.193103448275862,0.2809611829944547,0.1228406909788867,0.0764119601328903,0.1325356649792913
522.9,2.062,0.1885931558935361,0.2794117647058823,0.1269035532994923,0.0825082508250825,0.11329374143444496
533.9,2.104,0.1812688821752265,0.271062271062271,0.1260239445494644,0.0853158326497128,0.09800362976406533
544.9,2.147,0.1920480120030007,0.2773722627737226,0.130162703379224,0.0913539967373572,0.10099188458070334
555.9,2.19,0.191044776119403,0.2909090909090909,0.1293532338308457,0.0941558441558441,0.11121076233183856
566.9,2.234,0.1900519673348181,0.2831215970961887,0.1212871287128712,0.0937752627324171,0.11239964317573595
577.9,2.278,0.1892091648189209,0.2893309222423146,0.1231527093596059,0.0998389694041868,0.09591474245115453
588.9,2.322,0.1885125184094256,0.2888086642599278,0.1276073619631902,0.102728731942215,0.08845643520566121
599.9,2.367,0.1879588839941262,0.2882882882882883,0.1296636085626911,0.1024819855884707,0.09523809523809523
610.9,2.411,0.1875457875457875,0.2954954954954955,0.1317073170731707,0.1118210862619808,0.09498680738786279
621.9,2.457,0.1988304093567251,0.302158273381295,0.1339829476248477,0.1181165203511572,0.09828872312417727
633.7,2.505,0.1985401459854014,0.3093525179856115,0.1337386018237082,0.1179282868525896,0.10687691633815155
645.7,2.555,0.1985401459854014,0.3159784560143626,0.1433778857837181,0.1243027888446215,0.12603938730853392
657.7,2.606,0.2102189781021897,0.3231597845601436,0.1410334346504559,0.1338645418326693,0.13298337707786526
669.7,2.656,0.210372534696859,0.3237410071942446,0.1484184914841849,0.1339712918660287,0.12598425196850394
681.7,2.707,0.2106803218727139,0.3309352517985611,0.1438147471054235,0.1372705506783719,0.14711033274956217
693.7,2.759,0.2228739002932551,0.3459459459459459,0.1441661576053756,0.1408,0.1543859649122807
705.7,2.811,0.2235294117647059,0.3465703971119133,0.1495098039215686,0.144346431435445,0.1546572934973638
717.7,2.863,0.2243542435424354,0.3544303797468354,0.1500615006150061,0.1480289621882542,0.15513442044953724
729.7,2.915,0.2253521126760563,0.3623188405797101,0.150710315009265,0.1581920903954802,0.15561450044208666
741.7,2.968,0.2265275707898658,0.3636363636363636,0.1515527950310559,0.1557177615571776,0.14913448735019974
751.9,3.014,0.2395209580838323,0.3715846994535519,0.1548064918851435,0.1563517915309446,0.15679287305122494
759.9,3.049,0.2406015037593984,0.3656307129798903,0.1554858934169279,0.1568627450980392,0.15735359856951275
767.9,3.085,0.2415094339622641,0.3809523809523809,0.1561712846347607,0.160655737704918,0.15067264573991032
775.9,3.121,0.2426080363912054,0.3743119266055046,0.1619228336495888,0.1580246913580247,0.14401440144014402
783.9,3.157,0.2559025133282559,0.3830570902394107,0.1525746980292434,0.1652892561983471,0.14460009037505647
791.9,3.193,0.2450229709035222,0.3837638376383764,0.1585677749360614,0.1627906976744186,0.14525646845211077
799.9,3.23,0.2340261739799846,0.3851851851851852,0.1569131832797427,0.1668056713928273,0.14585232452142205
807.9,3.266,0.2478698683191324,0.3866171003717472,0.1604139715394566,0.1676445934618608,0.15384615384615385
815.9,3.303,0.2616822429906542,0.4029850746268656,0.1587508132726089,0.16849199663016,0.1693511274735389
823.9,3.34,0.2507836990595611,0.4037383177570093,0.1598951507208388,0.1625740897544453,0.1702127659574468
832.1,3.378,0.2525651144435675,0.3977485928705441,0.1635883905013192,0.1669505962521294,0.17116279069767443
840.1,3.415,0.2541699761715647,0.4067796610169492,0.1647840531561462,0.1678082191780822,0.17212347988774557
848.1,3.452,0.256,0.4007561436672968,0.1633199464524765,0.1722652885443583,0.1731764705882353
856.1,3.49,0.257856567284448,0.403041825095057,0.1618341200269723,0.169844020797227,0.1665877898722196
864.1,3.527,0.2599512591389114,0.3893129770992366,0.1631543167912984,0.1675392670157068,0.13720819437827536
872.1,3.565,0.2225859247135843,0.3754789272030651,0.161754626456477,0.1685689201053555,0.09587727708533078
880.1,3.603,0.2244224422442244,0.3769230769230769,0.165860400829302,0.1732979664014146,0.0888030888030888
888.1,3.641,0.2262895174708818,0.3783783783783784,0.1645746164574616,0.1708185053380783,0.10695187165775401
896.1,3.679,0.2416107382550335,0.3961165048543689,0.1717100633356791,0.1792114695340501,0.12530592266275087
904.1,3.717,0.2436548223350254,0.3898635477582846,0.1761363636363636,0.1732851985559566,0.126232741617357
912.3,3.757,0.2459436379163108,0.392156862745098,0.1664275466284074,0.1783439490445859,0.11332007952286283
920.3,3.795,0.2482758620689655,0.3937007874015748,0.1768115942028985,0.1798165137614679,0.11022044088176353
928.3,3.834,0.2506527415143603,0.403960396039604,0.1814191660570592,0.188539741219963,0.10909090909090909
936.3,3.872,0.2530755711775044,0.3976143141153082,0.1832963784183296,0.190121155638397,0.11405295315682282
944.3,3.911,0.2555456965394853,0.4,0.1882001493651979,0.1915492957746478,0.1026694045174538
952.3,3.95,0.2582959641255605,0.393574297188755,0.1873111782477341,0.1893939393939394,0.09321595028482652
960.3,3.99,0.2608695652173913,0.3959595959595959,0.1893129770992366,0.1986628462273161,0.09404388714733543
968.3,4.029,0.2637362637362637,0.3902439024390244,0.1915057915057915,0.1926782273603083,0.10121244069583553
976.3,4.068,0.2666666666666666,0.3918367346938775,0.196875,0.1982507288629737,0.09366684406599254
984.3,4.108,0.2696629213483146,0.3860369609856263,0.1928853754940711,0.2001962708537782,0.09452201933404941
992.5,4.148,0.2575757575757575,0.3801652892561983,0.1953562850280224,0.198019801980198,0.08676789587852494
1000.3,4.188,0.2605363984674329,0.3742203742203742,0.1975708502024291,0.1998001998001998,0.0832420591456736
1008.3,4.228,0.2635658914728682,0.3674321503131524,0.2001640689089417,0.1975806451612903,0.08185840707964602
1016.3,4.268,0.2666666666666666,0.361344537815126,0.1993355481727574,0.1995926680244399,0.08268156424581005
1024.3,4.308,0.2542204568023833,0.3720930232558139,0.202020202020202,0.197327852004111,0.08126410835214447
1032.3,4.349,0.2733668341708543,0.3744680851063829,0.2046035805626598,0.1993769470404984,0.07986309184255562
1040.3,4.389,0.2769857433808554,0.3675213675213675,0.2074330164217804,0.1970649895178197,0.0760806916426513
1048.3,4.43,0.2639175257731959,0.3612903225806451,0.2066549912434325,0.1991525423728813,0.07226107226107226
1056.3,4.47,0.267223382045929,0.3636363636363636,0.2060390763765541,0.1967914438502673,0.07778432527990571
1064.3,4.511,0.2708994708994709,0.3660130718954248,0.2162162162162162,0.1989189189189189,0.08814770696843359
1072.3,4.553,0.2915326902465166,0.3676148796498906,0.2193784277879341,0.2052401746724891,0.08433734939759036
1080.3,4.594,0.2782608695652174,0.3788546255506608,0.2187210379981464,0.2030905077262693,0.08531383302864107
1088.3,4.635,0.2995594713656387,0.3813747228381374,0.2220131702728127,0.1962095875139353,0.08872458410351201
1096.3,4.676,0.2860335195530726,0.375,0.2254059216809933,0.2072072072072072,0.09226932668329177
1104.3,4.718,0.289920724801812,0.3766816143497757,0.2248062015503876,0.20501138952164,0.09842271293375394
1112.3,4.759,0.2939150401836969,0.3611738148984199,0.2125984251968504,0.1887226697353279,0.10472541507024266
1120.3,4.801,0.2983682983682983,0.3636363636363636,0.2197802197802197,0.1906976744186046,0.10084033613445378
1128.3,4.842,0.2978723404255319,0.365296803652968,0.2192893401015228,0.1833137485311398,0.10732984293193717
1136.3,4.884,0.3069544364508393,0.3586206896551724,0.2350515463917525,0.2042755344418052,0.10066225165562914
1144.3,4.926,0.3114355231143552,0.3703703703703703,0.2387434554973822,0.2016806722689075,0.09389671361502347
1153.3,4.969,0.3118811881188119,0.3720930232558139,0.2433297758804695,0.2043795620437956,0.09517335146159075
1161.3,5.011,0.3115577889447236,0.3559718969555035,0.2296858071505959,0.1916461916461916,0.09917355371900827
1169.3,5.053,0.3112244897959184,0.348235294117647,0.2290748898678414,0.1888198757763975,0.10320781032078104
1177.3,5.096,0.3212435233160621,0.3412322274881517,0.2284434490481523,0.1909547738693467,0.11016949152542373
1185.3,5.138,0.304862023653088,0.3428571428571428,0.2369020501138952,0.1878172588832487,0.11158798283261803
1193.3,5.181,0.3044058744993324,0.3357314148681055,0.2453703703703703,0.1848523748395378,0.11884057971014493
1201.3,5.223,0.3197831978319783,0.3469879518072289,0.2402826855123674,0.1815823605706874,0.13215859030837004
1209.3,5.266,0.3085399449035813,0.3292978208232445,0.2347305389221557,0.1834862385321101,0.12788104089219332
1217.3,5.309,0.3244755244755244,0.3317073170731707,0.2338611449451887,0.1801324503311258,0.12650602409638553
1225.3,5.352,0.3238636363636363,0.3333333333333333,0.2329615861214374,0.1927710843373494,0.13129770992366413
1233.3,5.396,0.3174603174603174,0.3251231527093596,0.2421185372005044,0.1786197564276048,0.13611755607115236
1241.3,5.439,0.322108345534407,0.3267326732673267,0.2307692307692307,0.1693989071038251,0.13793103448275862
1249.3,5.483,0.3154761904761904,0.308457711442786,0.2398956975228161,0.1712707182320442,0.14285714285714285
1257.3,5.526,0.3141993957703927,0.3,0.2337317397078353,0.1673640167364016,0.1414790996784566
1265.3,5.569,0.325652841781874,0.2914572864321608,0.2321187584345479,0.1633802816901408,0.1532192339038305
1273.3,5.613,0.3244929797191888,0.2929292929292929,0.2307692307692307,0.1536273115220483,0.1551155115511551
1281.3,5.657,0.329635499207607,0.2842639593908629,0.2569832402234637,0.1724137931034483,0.1505016722408027
1289.3,5.7,0.3215434083601286,0.2755102040816326,0.2503556187766714,0.1681159420289855,0.14902624894157493
1297.3,5.744,0.326797385620915,0.2769230769230769,0.2485549132947976,0.1639824304538799,0.13379073756432247
1305.3,5.788,0.3184079601990049,0.2783505154639175,0.2411764705882353,0.1536189069423929,0.12858384013900956
1313.3,5.834,0.3097643097643097,0.2583979328165374,0.2511210762331838,0.1549925484351713,0.12313104661389622
1321.3,5.878,0.3213675213675214,0.2493506493506493,0.243531202435312,0.150375939849624,0.15316117542297417
1329.3,5.922,0.3119584055459272,0.2395833333333333,0.2349304482225656,0.1393939393939394,0.12984670874661858
1337.3,5.966,0.3169014084507042,0.2303664921465968,0.2327044025157232,0.1406727828746177,0.13503649635036497
1345.3,6.011,0.3071428571428571,0.2309711286089238,0.2236421725239616,0.12326656394453,0.11819021237303785
1353.3,6.056,0.3115942028985507,0.2110817941952506,0.2207792207792207,0.124223602484472,0.1308411214953271
1361.3,6.1,0.3014705882352941,0.2116402116402116,0.2244224422442244,0.1189358372456964,0.11352885525070956
1369.3,6.145,0.297951582867784,0.2015915119363395,0.2077051926298157,0.1070866141732283,0.11866028708133972
1377.3,6.19,0.2873345935727788,0.1808510638297872,0.2108843537414966,0.1015873015873015,0.11218568665377177
1385.3,6.235,0.2835249042145594,0.1706666666666666,0.2072538860103626,0.0910543130990415,0.11741682974559686
1393.3,6.281,0.2790697674418604,0.1711229946524064,0.1964912280701754,0.0916398713826366,0.12648221343873517
1401.3,6.326,0.275049115913556,0.1554959785522788,0.192170818505338,0.0791599353796446,0.10789210789210789
1409.3,6.372,0.2783300198807157,0.1505376344086021,0.1805054151624548,0.0715447154471544,0.09687184661957618
1417.3,6.417,0.249496981891348,0.1455525606469002,0.1681901279707495,0.0571895424836601,0.12232415902140673
1425.3,6.463,0.2606924643584521,0.1347708894878706,0.1629629629629629,0.0623973727422003,0.09876543209876543
1433.3,6.508,0.2304526748971193,0.1216216216216216,0.150093808630394,0.0378912685337726,0.10384215991692627
