TIME (SECONDS),PRESSURE (BARS),5.8 DEGREES (COUNTS),16 DEGREES (COUNTS),40 DEGREES (COUNTS),70 DEGREES (COUNTS),178 DEGREES (COUNTS)
-2.6,0.3981,3.35308,6.07046,6.34599,7.31429,-25.54422
0.4,0.4058,2.10909,3.13043,3.36134,3.6633,-35.98639
3.4,0.4136,0.90498,0.69565,1.23849,1.10438,27.90011
6.4,0.4214,0.82883,0.57609,1.13333,0.99663,29.02494
9.4,0.4292,0.93483,0.78261,0.92946,0.78114,12.48299
12.4,0.437,0.96644,0.73913,0.3299,0.20202,1.23216
15.4,0.4449,0.78396,0.6087,0.32033,0.19529,0.97738
18.4,0.4527,0.70796,0.56522,0.31837,0.18855,0.90395
21.4,0.4606,0.74009,0.58696,0.29209,0.17479,0.93905
24.4,0.4685,0.70175,0.54348,0.29839,0.17479,0.84685
28.0,0.478,0.66231,0.54348,0.288,0.16779,0.77303
32.0,0.4886,0.65659,0.52174,0.2619,0.1742,0.75168
36.0,0.4992,0.54818,0.44565,0.25933,0.16694,0.51728
40.0,0.5098,0.51805,0.44565,0.27237,0.16667,0.44395
44.0,0.5204,0.52211,0.4336,0.27746,0.16611,0.45916
48.0,0.5311,0.60125,0.4878,0.2819,0.17219,0.64984
52.0,0.5417,0.52893,0.44324,0.26365,0.16502,0.48908
56.0,0.5525,0.55624,0.45405,0.26816,0.17105,0.52061
60.0,0.5632,0.64777,0.49596,0.27993,0.18331,0.67241
64.0,0.574,0.60922,0.49462,0.27687,0.18923,0.53105
68.7,0.5865,0.60198,0.50538,0.27289,0.17504,0.49257
73.7,0.6001,0.5625,0.52547,0.27562,0.18065,0.38696
78.7,0.6137,0.52408,0.55615,0.2713,0.1859,0.3
83.7,0.6273,0.51711,0.576,0.28082,0.18442,0.26392
88.7,0.641,0.56929,0.61538,0.27656,0.18957,0.29358
93.7,0.6547,0.56089,0.62434,0.28524,0.17555,0.27419
98.7,0.6685,0.58182,0.67546,0.28059,0.19285,0.25523
103.7,0.6824,0.60215,0.67192,0.28205,0.19753,0.26798
108.7,0.6963,0.59259,0.67016,0.28391,0.20214,0.24927
113.7,0.7102,0.61217,0.66841,0.27287,0.18816,0.24639
119.3,0.726,0.65641,0.70649,0.27964,0.20451,0.28843
125.3,0.7429,0.72483,0.74419,0.27422,0.19048,0.31402
131.3,0.7598,0.7117,0.74036,0.27445,0.18824,0.36832
137.3,0.7769,0.72375,0.73657,0.28612,0.19214,0.39166
143.3,0.794,0.86349,0.81425,0.27451,0.18993,0.38537
149.3,0.8111,0.79751,0.72727,0.26337,0.18777,0.42179
155.3,0.8284,0.78287,0.72362,0.25841,0.18565,0.42907
161.3,0.8457,0.76877,0.72,0.25823,0.17222,0.46337
167.3,0.8632,0.80236,0.75434,0.25323,0.17033,0.45599
173.3,0.8807,0.81159,0.75062,0.25349,0.16282,0.50165
180.0,0.9003,0.79545,0.7451,0.24783,0.16064,0.49311
187.0,0.9209,0.75661,0.70073,0.23758,0.1638,0.48408
194.0,0.9417,0.76294,0.657,0.24171,0.15104,0.46286
201.0,0.9625,0.77005,0.69065,0.23175,0.13864,0.50384
208.0,0.9835,0.8377,0.72381,0.23129,0.12658,0.56755
215.0,1.005,0.78049,0.71868,0.21754,0.11985,0.52187
222.0,1.026,1.08816,0.97424,0.23913,0.11823,0.74636
229.0,1.047,1.18665,1.04186,0.23855,0.10693,0.82521
236.0,1.069,1.24272,1.07159,0.22965,0.09581,0.90204
243.0,1.09,1.29678,1.02752,0.22927,0.09456,0.97574
250.7,1.114,1.27103,0.94545,0.21643,0.08858,0.91491
258.7,1.139,1.17162,0.97297,0.21569,0.07339,0.8978
266.7,1.164,1.43659,1.18121,0.22265,0.07232,1.04987
274.7,1.19,1.69163,1.5255,0.21429,0.05457,1.19665
282.7,1.215,1.79892,1.61758,0.23594,0.06154,1.54217
290.7,1.241,1.83245,1.53377,0.24571,0.052,1.51621
298.7,1.267,1.60167,1.58963,0.21277,0.04487,1.21643
306.7,1.293,0.90164,1.09871,0.17058,0.04426,0.58902
314.7,1.319,0.54783,0.85106,0.1641,0.03742,0.38027
322.7,1.345,0.20218,0.27004,0.12427,0.03593,0.09368
331.4,1.374,0.20253,0.25941,0.12201,0.03239,0.10369
340.4,1.404,0.21818,0.28216,0.1165,0.03094,0.1542
349.4,1.434,0.19962,0.25514,0.11765,0.03251,0.1206
358.4,1.465,0.20019,0.26176,0.10946,0.04086,0.13421
367.4,1.496,0.20438,0.29209,0.11077,0.03266,0.14743
376.4,1.527,0.20485,0.31388,0.11809,0.03416,0.17103
385.4,1.558,0.18423,0.29541,0.11326,0.03468,0.14346
394.4,1.589,0.17467,0.26984,0.11462,0.03058,0.12292
403.4,1.621,0.1931,0.26772,0.10725,0.03578,0.10082
412.4,1.653,0.5583,0.40705,0.1258,0.03811,0.27656
422.2,1.687,0.21513,0.28738,0.11276,0.04309,0.18474
432.2,1.723,0.19917,0.26255,0.11127,0.04174,0.15873
442.2,1.759,0.19344,0.2682,0.11264,0.04485,0.14909
452.2,1.796,0.19773,0.26667,0.11126,0.04787,0.13974
462.2,1.833,0.20192,0.26515,0.11536,0.05522,0.14601
472.2,1.87,0.19667,0.27119,0.11679,0.05817,0.15985
482.2,1.907,0.19811,0.26966,0.12089,0.06112,0.1508
492.2,1.944,0.19938,0.27612,0.12232,0.0674,0.14953
502.2,1.982,0.19784,0.282,0.12129,0.08027,0.14094
512.2,2.02,0.1931,0.28096,0.12284,0.07641,0.13254
522.9,2.062,0.18859,0.27941,0.1269,0.08251,0.11329
533.9,2.104,0.18127,0.27106,0.12602,0.08532,0.098
544.9,2.147,0.19205,0.27737,0.13016,0.09135,0.10099
555.9,2.19,0.19104,0.29091,0.12935,0.09416,0.11121
566.9,2.234,0.19005,0.28312,0.12129,0.09378,0.1124
577.9,2.278,0.18921,0.28933,0.12315,0.09984,0.09591
588.9,2.322,0.18851,0.28881,0.12761,0.10273,0.08846
599.9,2.367,0.18796,0.28829,0.12966,0.10248,0.09524
610.9,2.411,0.18755,0.2955,0.13171,0.11182,0.09499
621.9,2.457,0.19883,0.30216,0.13398,0.11812,0.09829
633.7,2.505,0.19854,0.30935,0.13374,0.11793,0.10688
645.7,2.555,0.19854,0.31598,0.14338,0.1243,0.12604
657.7,2.606,0.21022,0.32316,0.14103,0.13386,0.13298
669.7,2.656,0.21037,0.32374,0.14842,0.13397,0.12598
681.7,2.707,0.21068,0.33094,0.14381,0.13727,0.14711
693.7,2.759,0.22287,0.34595,0.14417,0.1408,0.15439
705.7,2.811,0.22353,0.34657,0.14951,0.14435,0.15466
717.7,2.863,0.22435,0.35443,0.15006,0.14803,0.15513
729.7,2.915,0.22535,0.36232,0.15071,0.15819,0.15561
741.7,2.968,0.22653,0.36364,0.15155,0.15572,0.14913
751.9,3.014,0.23952,0.37158,0.15481,0.15635,0.15679
759.9,3.049,0.2406,0.36563,0.15549,0.15686,0.15735
767.9,3.085,0.24151,0.38095,0.15617,0.16066,0.15067
775.9,3.121,0.24261,0.37431,0.16192,0.15802,0.14401
783.9,3.157,0.2559,0.38306,0.15257,0.16529,0.1446
791.9,3.193,0.24502,0.38376,0.15857,0.16279,0.14526
799.9,3.23,0.23403,0.38519,0.15691,0.16681,0.14585
807.9,3.266,0.24787,0.38662,0.16041,0.16764,0.15385
815.9,3.303,0.26168,0.40299,0.15875,0.16849,0.16935
823.9,3.34,0.25078,0.40374,0.1599,0.16257,0.17021
832.1,3.378,0.25257,0.39775,0.16359,0.16695,0.17116
840.1,3.415,0.25417,0.40678,0.16478,0.16781,0.17212
848.1,3.452,0.256,0.40076,0.16332,0.17227,0.17318
856.1,3.49,0.25786,0.40304,0.16183,0.16984,0.16659
864.1,3.527,0.25995,0.38931,0.16315,0.16754,0.13721
872.1,3.565,0.22259,0.37548,0.16175,0.16857,0.09588
880.1,3.603,0.22442,0.37692,0.16586,0.1733,0.0888
888.1,3.641,0.22629,0.37838,0.16457,0.17082,0.10695
896.1,3.679,0.24161,0.39612,0.17171,0.17921,0.12531
904.1,3.717,0.24365,0.38986,0.17614,0.17329,0.12623
912.3,3.757,0.24594,0.39216,0.16643,0.17834,0.11332
920.3,3.795,0.24828,0.3937,0.17681,0.17982,0.11022
928.3,3.834,0.25065,0.40396,0.18142,0.18854,0.10909
936.3,3.872,0.25308,0.39761,0.1833,0.19012,0.11405
944.3,3.911,0.25555,0.4,0.1882,0.19155,0.10267
952.3,3.95,0.2583,0.39357,0.18731,0.18939,0.09322
960.3,3.99,0.26087,0.39596,0.18931,0.19866,0.09404
968.3,4.029,0.26374,0.39024,0.19151,0.19268,0.10121
976.3,4.068,0.26667,0.39184,0.19688,0.19825,0.09367
984.3,4.108,0.26966,0.38604,0.19289,0.2002,0.09452
992.5,4.148,0.25758,0.38017,0.19536,0.19802,0.08677
1000.3,4.188,0.26054,0.37422,0.19757,0.1998,0.08324
1008.3,4.228,0.26357,0.36743,0.20016,0.19758,0.08186
1016.3,4.268,0.26667,0.36134,0.19934,0.19959,0.08268
1024.3,4.308,0.25422,0.37209,0.20202,0.19733,0.08126
1032.3,4.349,0.27337,0.37447,0.2046,0.19938,0.07986
1040.3,4.389,0.27699,0.36752,0.20743,0.19706,0.07608
1048.3,4.43,0.26392,0.36129,0.20665,0.19915,0.07226
1056.3,4.47,0.26722,0.36364,0.20604,0.19679,0.07778
1064.3,4.511,0.2709,0.36601,0.21622,0.19892,0.08815
1072.3,4.553,0.29153,0.36761,0.21938,0.20524,0.08434
1080.3,4.594,0.27826,0.37885,0.21872,0.20309,0.08531
1088.3,4.635,0.29956,0.38137,0.22201,0.19621,0.08872
1096.3,4.676,0.28603,0.375,0.22541,0.20721,0.09227
1104.3,4.718,0.28992,0.37668,0.22481,0.20501,0.09842
1112.3,4.759,0.29392,0.36117,0.2126,0.18872,0.10473
1120.3,4.801,0.29837,0.36364,0.21978,0.1907,0.10084
1128.3,4.842,0.29787,0.3653,0.21929,0.18331,0.10733
1136.3,4.884,0.30695,0.35862,0.23505,0.20428,0.10066
1144.3,4.926,0.31144,0.37037,0.23874,0.20168,0.0939
1153.3,4.969,0.31188,0.37209,0.24333,0.20438,0.09517
1161.3,5.011,0.31188,0.37209,0.24333,0.20438,0.09517
1169.3,5.053,0.31156,0.35597,0.22969,0.19165,0.09917
1177.3,5.096,0.31122,0.34824,0.22907,0.18882,0.10321
1185.3,5.138,0.32124,0.34123,0.22844,0.19095,0.11017
1193.3,5.181,0.30486,0.34286,0.2369,0.18782,0.11159
1201.3,5.223,0.30441,0.33573,0.24537,0.18485,0.11884
1209.3,5.266,0.31978,0.34699,0.24028,0.18158,0.13216
1217.3,5.309,0.30854,0.3293,0.23473,0.18349,0.12788
1225.3,5.352,0.32448,0.33171,0.23386,0.18013,0.12651
1233.3,5.396,0.32386,0.33333,0.23296,0.19277,0.1313
1241.3,5.439,0.31746,0.32512,0.24212,0.17862,0.13612
1249.3,5.483,0.32211,0.32673,0.23077,0.1694,0.13793
1257.3,5.526,0.31548,0.30846,0.2399,0.17127,0.14286
1265.3,5.569,0.3142,0.3,0.23373,0.16736,0.14148
1273.3,5.613,0.32565,0.29146,0.23212,0.16338,0.15322
1281.3,5.657,0.32449,0.29293,0.23077,0.15363,0.15512
1289.3,5.7,0.32964,0.28426,0.25698,0.17241,0.1505
1297.3,5.744,0.32154,0.27551,0.25036,0.16812,0.14903
1305.3,5.788,0.3268,0.27692,0.24855,0.16398,0.13379
1313.3,5.834,0.31841,0.27835,0.24118,0.15362,0.12858
1321.3,5.878,0.30976,0.2584,0.25112,0.15499,0.12313
1329.3,5.922,0.32137,0.24935,0.24353,0.15038,0.15316
1337.3,5.966,0.31196,0.23958,0.23493,0.13939,0.12985
1345.3,6.011,0.3169,0.23037,0.2327,0.14067,0.13504
1353.3,6.056,0.30714,0.23097,0.22364,0.12327,0.11819
1361.3,6.1,0.31159,0.21108,0.22078,0.12422,0.13084
1369.3,6.145,0.30147,0.21164,0.22442,0.11894,0.11353
1377.3,6.19,0.29795,0.20159,0.20771,0.10709,0.11866
1385.3,6.235,0.28733,0.18085,0.21088,0.10159,0.11219
1393.3,6.281,0.28352,0.17067,0.20725,0.09105,0.11742
1401.3,6.326,0.27907,0.17112,0.19649,0.09164,0.12648
1409.3,6.372,0.27505,0.1555,0.19217,0.07916,0.10789
1417.3,6.417,0.27833,0.15054,0.18051,0.07154,0.09687
1425.3,6.463,0.2495,0.14555,0.16819,0.05719,0.12232
1433.3,6.508,0.26069,0.13477,0.16296,0.0624,0.09877
1441.3,6.554,0.23045,0.12162,0.15009,0.03789,0.10384
1449.3,6.6,0.23333,0.10298,0.13688,0.02483,0.09634
1457.3,6.646,0.21053,0.09485,0.13846,0.01495,0.05491
1465.3,6.692,0.20382,0.07337,0.12062,0.005,0.0426
1473.3,6.739,0.18884,0.05978,0.09252,-0.01003,0.04077
1481.3,6.785,0.18182,0.05978,0.09742,-0.01675,0.03459
1489.3,6.831,0.15721,0.04076,0.06827,-0.04195,0.02612
1497.3,6.878,0.16703,0.02174,0.07287,-0.03025,0.02957
1505.3,6.924,0.13082,0.00543,0.0449,-0.05556,0.01101
1513.3,6.971,0.11384,-0.00543,0.03498,-0.06902,0.02879
1521.3,7.017,0.09438,-0.01359,0.01452,-0.10269,0.02113
1529.3,7.064,0.08804,-0.02717,-0.00418,-0.10774,0.03575
1537.3,7.111,0.06122,-0.04348,-0.01887,-0.12795,0.02245
1545.3,7.158,0.0615,-0.07317,-0.05485,-0.13445,0.01237
1554.3,7.206,0.02517,-0.08672,-0.0678,-0.16779,0.01919
1562.3,7.254,0.01147,-0.09459,-0.08085,-0.1541,0.00792
1570.3,7.301,-0.02299,-0.11081,-0.09808,-0.18698,0.01472
1578.3,7.348,-0.01382,-0.12668,-0.11325,-0.20667,-0.00113
1586.3,7.396,-0.04157,-0.13441,-0.14561,-0.21262,-0.0193
1594.3,7.443,-0.07621,-0.16086,-0.16274,-0.21818,-0.04875
1602.3,7.491,-0.08776,-0.18231,-0.17131,-0.23723,-0.03968
1610.3,7.539,-0.11982,-0.19251,-0.19658,-0.24918,-0.05543
1618.3,7.587,-0.12442,-0.20213,-0.23028,-0.25449,-0.07006
1626.3,7.635,-0.14483,-0.22281,-0.25532,-0.27922,-0.07666
1634.3,7.684,-0.17431,-0.24339,-0.27176,-0.29032,-0.09438
1642.3,7.732,-0.19178,-0.2533,-0.28753,-0.30128,-0.10291
1650.3,7.781,-0.20957,-0.26247,-0.31158,-0.31847,-0.07581
1658.3,7.829,-0.24434,-0.28272,-0.32636,-0.32278,-0.08426
1666.3,7.877,-0.26126,-0.30208,-0.33264,-0.34537,-0.11038
1674.3,7.926,-0.26906,-0.32208,-0.36364,-0.35514,-0.12719
1682.3,7.975,-0.28508,-0.32041,-0.37705,-0.37713,-0.10022
1690.3,8.024,-0.30973,-0.33933,-0.39837,-0.37423,-0.14286
1698.3,8.072,-0.32456,-0.35897,-0.41129,-0.38906,-0.11171
1706.3,8.122,-0.34858,-0.36735,-0.432,-0.40964,-0.11502
1714.3,8.172,-0.36285,-0.38579,-0.44356,-0.40597,-0.08448
1722.3,8.221,-0.35897,-0.38384,-0.43053,-0.40237,-0.08796
1730.3,8.27,-0.37288,-0.39196,-0.45736,-0.42167,-0.10373
1738.3,8.32,-0.39413,-0.399,-0.46743,-0.41739,-0.09035
1746.3,8.369,-0.40664,-0.41687,-0.46212,-0.43615,-0.08943
1754.3,8.419,-0.40246,-0.42469,-0.4785,-0.43182,-0.07638
1762.3,8.469,-0.39837,-0.43243,-0.50185,-0.40449,-0.09543
1770.3,8.519,-0.41767,-0.42927,-0.49545,-0.42222,-0.10609
1778.3,8.569,-0.42063,-0.4466,-0.48833,-0.43956,-0.09709
1786.3,8.619,-0.42353,-0.45301,-0.51064,-0.43478,-0.07287
1794.3,8.67,-0.42553,-0.45933,-0.53054,-0.45101,-0.10218
1802.3,8.721,-0.44359,-0.46667,-0.4957,-0.4244,-0.0972
1810.3,8.771,-0.44528,-0.47281,-0.51525,-0.44037,-0.09585
1818.3,8.821,-0.43866,-0.47887,-0.50751,-0.43523,-0.08727
1826.3,8.872,-0.43303,-0.48485,-0.52632,-0.43022,-0.08251
1834.3,8.923,-0.44846,-0.48148,-0.5178,-0.42478,-0.11317
1842.3,8.974,-0.44207,-0.49655,-0.51037,-0.43945,-0.09765
1850.3,9.025,-0.43585,-0.49315,-0.47649,-0.4143,-0.09614
1858.3,9.076,-0.44367,-0.49887,-0.49383,-0.40926,-0.07445
1866.3,9.127,-0.46416,-0.5045,-0.50986,-0.40385,-0.09667
1874.3,9.179,-0.45791,-0.50893,-0.50149,-0.39858,-0.10509
1882.3,9.231,-0.45108,-0.50554,-0.49339,-0.39344,-0.08731
1890.3,9.282,-0.44444,-0.5022,-0.48555,-0.38844,-0.10501
1898.3,9.334,-0.4373,-0.50655,-0.5,-0.38356,-0.0971
1906.3,9.386,-0.43106,-0.49458,-0.49162,-0.36036,-0.10478
1914.3,9.437,-0.42434,-0.50753,-0.46154,-0.33815,-0.09401
1922.3,9.489,-0.39324,-0.50427,-0.47503,-0.36883,-0.1194
1930.3,9.541,-0.38729,-0.50847,-0.44562,-0.34632,-0.09692
1938.3,9.594,-0.40476,-0.5042,-0.43807,-0.34188,-0.10686
1946.3,9.646,-0.37537,-0.50104,-0.45128,-0.3038,-0.13646
1955.3,9.7,-0.35209,-0.49689,-0.42371,-0.29969,-0.09224
1963.3,9.752,-0.35745,-0.49281,-0.43564,-0.31179,-0.11248
1971.3,9.805,-0.35754,-0.4888,-0.40876,-0.2915,-0.10256
1979.3,9.857,-0.34113,-0.48485,-0.40191,-0.27146,-0.11679
1987.3,9.91,-0.341,-0.48898,-0.39483,-0.26798,-0.09138
1995.3,9.963,-0.33067,-0.49304,-0.38844,-0.24514,-0.12067
2003.3,10.02,-0.33071,-0.48126,-0.38182,-0.22265,-0.10606
2011.3,10.07,-0.32041,-0.4775,-0.35794,-0.21212,-0.09932
2019.3,10.12,-0.30025,-0.47379,-0.36964,-0.20187,-0.11722
2027.3,10.18,-0.30576,-0.46923,-0.34595,-0.20295,-0.0985
2035.3,10.23,-0.30123,-0.45038,-0.35745,-0.18579,-0.08033
2043.3,10.28,-0.28676,-0.44697,-0.33508,-0.17251,-0.0813
2051.3,10.34,-0.26347,-0.44361,-0.31308,-0.15617,-0.08686
2059.3,10.39,-0.25472,-0.44776,-0.32421,-0.14711,-0.08769
2067.3,10.45,-0.24623,-0.42884,-0.30309,-0.12792,-0.0796
2075.3,10.5,-0.23341,-0.41835,-0.29833,-0.10922,-0.06743
2083.3,10.55,-0.21646,-0.42987,-0.27826,-0.10793,-0.05564
2091.3,10.61,-0.20444,-0.42599,-0.25856,-0.10649,-0.06105
2099.3,10.66,-0.18839,-0.4086,-0.26941,-0.08217,-0.0435
2107.3,10.72,-0.19849,-0.39076,-0.26544,-0.06818,-0.07132
2115.3,10.77,-0.17872,-0.40212,-0.24682,-0.04647,-0.06416
2123.3,10.83,-0.1595,-0.3986,-0.21805,-0.03563,-0.03947
2131.3,10.88,-0.15305,-0.375,-0.21127,-0.03127,-0.04274
2139.3,10.94,-0.13863,-0.39243,-0.19081,-0.02703,-0.04589
2147.3,10.99,-0.13668,-0.36923,-0.19145,-0.00305,-0.04704
2155.3,11.05,-0.11893,-0.3661,-0.18855,0.0113,-0.02315
2163.3,11.1,-0.12121,-0.37647,-0.17593,0.00223,-0.0383
2171.3,11.16,-0.14272,-0.35392,-0.18643,0.02134,-0.0395
2179.3,11.21,-0.11418,-0.36424,-0.15471,0.01018,-0.02696
2187.3,11.27,-0.10141,-0.35468,-0.1717,0.02157,-0.04352
2195.3,11.33,-0.1037,-0.35889,-0.15987,0.02699,-0.02915
2203.3,11.38,-0.07678,-0.36246,-0.15456,0.03511,-0.03209
2211.3,11.44,-0.1083,-0.34671,-0.14329,0.034,-0.05324
2219.3,11.49,-0.0748,-0.35088,-0.1203,0.04118,-0.02581
2227.3,11.55,-0.07388,-0.35443,-0.12166,0.05427,-0.01938
2235.3,11.61,-0.07986,-0.35793,-0.11713,0.05906,-0.04296
2243.3,11.66,-0.05832,-0.34891,-0.1185,0.05839,-0.03606
2251.3,11.72,-0.06435,-0.35294,-0.10834,0.08399,-0.04482
2259.3,11.78,-0.0393,-0.34409,-0.10415,0.08052,-0.0396
2267.3,11.83,-0.02312,-0.32927,-0.10007,0.08735,-0.04356
2276.3,11.89,-0.05061,-0.33888,-0.08785,0.09149,-0.03257
2284.3,11.95,-0.02818,-0.33634,-0.07848,0.09291,-0.04663
2292.3,12.01,-0.01752,-0.33383,-0.0615,0.10186,-0.04599
2300.3,12.06,-0.01495,-0.32544,-0.04224,0.11309,-0.06237
2308.3,12.12,0.0,-0.31765,-0.06262,0.10949,-0.05313
2316.3,12.18,-0.00154,-0.30365,-0.05412,0.13004,-0.05931
2324.3,12.23,0.0152,-0.30725,-0.04586,0.15256,-0.05442
2332.3,12.29,0.03156,-0.31655,-0.02454,0.16991,-0.0604
2340.3,12.35,0.05646,-0.29185,-0.02116,0.16822,-0.06755
2348.3,12.41,0.06765,-0.26705,0.00246,0.19433,-0.06277
2356.3,12.47,0.10182,-0.25952,-0.00304,0.21993,-0.05935
2364.3,12.52,0.1036,-0.22969,0.01203,0.22689,-0.06242
2372.3,12.58,0.1395,-0.19499,0.01428,0.23371,-0.06539
2380.3,12.64,0.12958,-0.18811,-0.00765,0.16027,-0.08442
2388.3,12.7,-0.00139,-0.26374,-0.1071,-0.02811,-0.06254
2396.3,12.76,-0.19876,-0.48022,-0.24885,-0.33206,-0.07145
2404.3,12.82,-0.16667,-0.54274,-0.22805,-0.28571,-0.07416
2412.3,12.87,0.03313,-0.26954,-0.03837,0.00536,-0.08978
2420.3,12.93,-0.08038,-0.40696,-0.12954,-0.08077,-0.06886
2428.3,12.99,-0.08488,-0.40479,-0.1592,-0.11585,-0.06918
2436.3,13.05,-0.08142,-0.38095,-0.17515,-0.13159,-0.03874
2444.3,13.11,-0.1067,-0.39947,-0.13442,-0.12836,0.00648
2452.3,13.17,-0.08763,-0.35556,-0.12024,-0.08004,0.00556
2460.3,13.23,-0.07663,-0.41558,-0.12759,-0.09969,0.00138
2468.3,13.29,-0.06831,-0.39226,-0.12849,-0.10494,0.00272
2476.3,13.35,-0.07273,-0.39024,-0.15023,-0.12006,-0.00511
2484.3,13.41,-0.09689,-0.38776,-0.14057,-0.14286,0.0093
2492.3,13.47,-0.0936,-0.38579,-0.14754,-0.15748,0.00053
2500.3,13.53,-0.06838,-0.38335,-0.15431,-0.14056,-0.01299
2508.3,13.59,-0.11622,-0.42158,-0.16097,-0.17046,-0.0072
2516.3,13.65,-0.09364,-0.4389,-0.16758,-0.18444,-0.02136
2524.3,13.71,-0.12612,-0.43672,-0.16609,-0.19066,-0.02214
2532.3,13.77,-0.11098,-0.4143,-0.17255,-0.18921,-0.0107
2540.3,13.83,-0.13107,-0.41227,-0.17112,-0.21023,-0.00788
2548.3,13.89,-0.09756,-0.42927,-0.19277,-0.20866,-0.02925
2556.3,13.95,-0.09447,-0.42718,-0.1913,-0.22191,-0.03184
2564.3,14.01,-0.09829,-0.44444,-0.18966,-0.24966,-0.03056
2572.3,14.07,-0.12698,-0.44178,-0.18824,-0.24784,-0.01891
2580.3,14.13,-0.1238,-0.45878,-0.21662,-0.26052,-0.02808
2588.3,14.19,-0.13624,-0.4566,-0.2075,-0.2802,-0.04448
2596.3,14.25,-0.1286,-0.45444,-0.19118,-0.27119,-0.02569
2604.3,14.31,-0.13429,-0.45176,-0.24088,-0.29761,-0.04998
2612.3,14.37,-0.14855,-0.46838,-0.22464,-0.31676,-0.04318
2620.3,14.43,-0.16486,-0.44755,-0.23011,-0.30057,-0.0499
2628.3,14.5,-0.1637,-0.4826,-0.25703,-0.34028,-0.0415
2636.3,14.56,-0.17112,-0.46189,-0.28356,-0.33793,-0.0481
2644.3,14.62,-0.15295,-0.47816,-0.28157,-0.34261,-0.06586
2652.3,14.68,-0.16034,-0.51259,-0.2796,-0.37447,-0.04207
2660.3,14.74,-0.1761,-0.49203,-0.29861,-0.37209,-0.06465
2668.3,14.8,-0.16658,-0.45351,-0.28276,-0.38992,-0.06071
2677.3,14.86,-0.1821,-0.48758,-0.30835,-0.39415,-0.06686
2685.3,14.93,-0.21366,-0.52076,-0.33999,-0.40481,-0.07282
2693.3,14.99,-0.19592,-0.48268,-0.2973,-0.4089,-0.07874
2701.3,15.05,-0.22718,-0.53452,-0.32228,-0.41311,-0.07156
2709.3,15.11,-0.20968,-0.53215,-0.3603,-0.44318,-0.08708
2717.3,15.17,-0.23246,-0.51214,-0.37795,-0.44066,-0.06716
2725.3,15.23,-0.26295,-0.52747,-0.36918,-0.46395,-0.08246
2733.3,15.3,-0.23762,-0.52516,-0.38002,-0.46135,-0.09123
2741.3,15.36,-0.24421,-0.52345,-0.41694,-0.45878,-0.08112
2749.3,15.42,-0.25844,-0.52117,-0.40146,-0.45624,-0.08975
2757.3,15.48,-0.29586,-0.55351,-0.40563,-0.47893,-0.09515
2765.3,15.55,-0.2788,-0.53448,-0.43537,-0.47649,-0.08831
2773.3,15.61,-0.32354,-0.58369,-0.43295,-0.47407,-0.09367
2781.3,15.67,-0.31418,-0.61604,-0.45588,-0.4715,-0.08996
2789.3,15.73,-0.33524,-0.61342,-0.45354,-0.46914,-0.08925
2797.3,15.8,-0.32607,-0.64544,-0.47612,-0.49136,-0.10334
2805.3,15.86,-0.36209,-0.64271,-0.4737,-0.46448,-0.08791
2813.3,15.92,-0.35272,-0.64067,-0.44651,-0.48651,-0.09891
2821.3,15.98,-0.37348,-0.65546,-0.46895,-0.45991,-0.10393
2829.3,16.05,-0.38644,-0.70293,-0.46662,-0.48193,-0.10606
2837.3,16.11,-0.42903,-0.76747,-0.48874,-0.47958,-0.11097
2845.3,16.18,-0.44915,-0.7817,-0.48651,-0.47743,-0.11867
2853.3,16.24,-0.45442,-0.86218,-0.48411,-0.47531,-0.11783
2861.3,16.3,-0.4959,-0.92562,-0.50602,-0.49686,-0.11423
2869.3,16.36,-0.52269,-0.93827,-0.50375,-0.49466,-0.11344
2877.3,16.43,-0.52056,-0.98462,-0.52537,-0.46904,-0.12365
