TIME (SECONDS),PRESSURE (BARS),5.8 DEGREES (COUNTS),16 DEGREES (COUNTS),40 DEGREES (COUNTS),70 DEGREES (COUNTS),178 DEGREES (COUNTS)
-2.6,0.3981,1033,1871,2534,3757,-23412
0.4,0.4058,488,784,1124,1582,-32622
3.4,0.4136,-42,-112,114,62,23699
6.4,0.4214,-76,-156,64,-2,24718
9.4,0.4292,-29,-80,-34,-130,10128
12.4,0.437,-15,-96,-325,-474,205
15.4,0.4449,-97,-144,-331,-478,-20
18.4,0.4527,-132,-160,-334,-482,-85
21.4,0.4606,-118,-152,-349,-491,-54
24.4,0.4685,-136,-168,-348,-491,-136
28.0,0.478,-155,-168,-356,-496,-202
32.0,0.4886,-159,-176,-372,-493,-222
36.0,0.4992,-211,-204,-377,-499,-433
40.0,0.5098,-227,-204,-374,-500,-501
44.0,0.5204,-227,-209,-375,-502,-490
48.0,0.5311,-191,-189,-377,-500,-319
52.0,0.5417,-228,-206,-391,-506,-468
56.0,0.5525,-217,-202,-393,-504,-442
60.0,0.5632,-174,-187,-391,-499,-304
64.0,0.574,-195,-188,-397,-497,-438
68.7,0.5865,-201,-184,-405,-509,-478
73.7,0.6001,-224,-177,-410,-508,-583
78.7,0.6137,-247,-166,-419,-508,-672
83.7,0.6273,-254,-159,-420,-513,-714
88.7,0.641,-230,-145,-429,-513,-693
93.7,0.6547,-238,-142,-431,-526,-720
98.7,0.6685,-230,-123,-441,-519,-747
103.7,0.6824,-222,-125,-448,-520,-743
108.7,0.6963,-231,-126,-454,-521,-771
113.7,0.7102,-223,-127,-469,-535,-783
119.3,0.726,-201,-113,-474,-529,-750
125.3,0.7429,-164,-99,-487,-544,-734
131.3,0.7598,-175,-101,-497,-552,-686
137.3,0.7769,-171,-103,-499,-555,-671
143.3,0.794,-86,-73,-518,-563,-689
149.3,0.8111,-130,-108,-537,-571,-658
155.3,0.8284,-142,-110,-551,-579,-660
161.3,0.8457,-154,-112,-563,-596,-630
167.3,0.8632,-134,-99,-578,-604,-649
173.3,0.8807,-130,-101,-589,-617,-604
180.0,0.9003,-144,-104,-607,-627,-625
187.0,0.9209,-175,-123,-629,-633,-648
194.0,0.9417,-174,-142,-640,-652,-687
201.0,0.9625,-172,-129,-663,-671,-646
208.0,0.9835,-124,-116,-678,-690,-573
215.0,1.005,-171,-119,-705,-705,-645
222.0,1.026,70,-11,-700,-716,-348
229.0,1.047,151,18,-715,-735,-244
236.0,1.069,200,31,-738,-755,-139
243.0,1.09,249,12,-753,-766,-35
250.7,1.114,232,-24,-782,-782,-125
258.7,1.139,150,-12,-800,-808,-153
266.7,1.164,389,81,-810,-821,76
274.7,1.19,628,237,-836,-849,305
282.7,1.215,739,281,-829,-854,855
290.7,1.241,785,245,-835,-875,828
298.7,1.267,577,273,-888,-894,353
306.7,1.293,-96,46,-953,-907,-681
314.7,1.319,-449,-70,-978,-926,-1043
322.7,1.345,-805,-346,-1043,-939,-1548
331.4,1.374,-819,-354,-1065,-956,-1556
340.4,1.404,-817,-346,-1092,-971,-1492
349.4,1.434,-850,-362,-1110,-982,-1575
358.4,1.465,-863,-361,-1139,-986,-1574
367.4,1.496,-872,-349,-1156,-1007,-1573
376.4,1.527,-885,-341,-1165,-1018,-1551
385.4,1.558,-921,-353,-1190,-1030,-1624
394.4,1.589,-945,-368,-1205,-1046,-1684
403.4,1.621,-936,-372,-1232,-1051,-1748
412.4,1.653,-519,-303,-1223,-1060,-1423
422.2,1.687,-934,-367,-1259,-1066,-1624
432.2,1.723,-965,-382,-1278,-1079,-1696
442.2,1.759,-984,-382,-1292,-1086,-1735
452.2,1.796,-990,-385,-1310,-1094,-1773
462.2,1.833,-996,-388,-1319,-1095,-1778
472.2,1.87,-1013,-387,-1331,-1101,-1766
482.2,1.907,-1020,-390,-1338,-1106,-1802
492.2,1.944,-1028,-388,-1349,-1107,-1820
502.2,1.982,-1038,-387,-1362,-1100,-1853
512.2,2.02,-1053,-389,-1371,-1112,-1885
522.9,2.062,-1067,-392,-1376,-1112,-1941
533.9,2.104,-1084,-398,-1387,-1115,-1988
544.9,2.147,-1077,-396,-1390,-1114,-1994
555.9,2.19,-1084,-390,-1400,-1116,-1982
566.9,2.234,-1091,-395,-1420,-1121,-1990
577.9,2.278,-1097,-393,-1424,-1118,-2036
588.9,2.322,-1102,-394,-1422,-1118,-2061
599.9,2.367,-1106,-395,-1423,-1121,-2052
610.9,2.411,-1109,-391,-1424,-1112,-2058
621.9,2.457,-1096,-388,-1422,-1105,-2055
633.7,2.505,-1098,-384,-1425,-1107,-2039
645.7,2.555,-1098,-381,-1410,-1099,-1997
657.7,2.606,-1082,-377,-1413,-1087,-1982
669.7,2.656,-1081,-376,-1400,-1086,-1998
681.7,2.707,-1079,-372,-1405,-1081,-1948
693.7,2.759,-1060,-363,-1401,-1074,-1928
705.7,2.811,-1056,-362,-1388,-1067,-1924
717.7,2.863,-1051,-357,-1382,-1059,-1917
729.7,2.915,-1045,-352,-1375,-1043,-1910
741.7,2.968,-1038,-350,-1366,-1041,-1917
751.9,3.014,-1016,-345,-1354,-1036,-1893
759.9,3.049,-1010,-347,-1347,-1032,-1885
767.9,3.085,-1005,-338,-1340,-1024,-1894
775.9,3.121,-999,-341,-1325,-1023,-1902
783.9,3.157,-977,-335,-1333,-1010,-1893
791.9,3.193,-986,-334,-1316,-1008,-1883
799.9,3.23,-995,-332,-1311,-999,-1874
807.9,3.266,-971,-330,-1298,-993,-1848
815.9,3.303,-948,-320,-1293,-987,-1805
823.9,3.34,-956,-319,-1282,-989,-1794
832.1,3.378,-947,-321,-1268,-978,-1782
840.1,3.415,-939,-315,-1257,-972,-1770
848.1,3.452,-930,-317,-1250,-961,-1757
856.1,3.49,-921,-314,-1243,-958,-1761
864.1,3.527,-911,-320,-1231,-954,-1811
872.1,3.565,-950,-326,-1223,-947,-1886
880.1,3.603,-940,-324,-1207,-935,-1888
888.1,3.641,-930,-322,-1198,-932,-1837
896.1,3.679,-904,-311,-1177,-916,-1787
904.1,3.717,-894,-313,-1160,-916,-1772
912.3,3.757,-883,-310,-1162,-903,-1784
920.3,3.795,-872,-308,-1136,-894,-1776
928.3,3.834,-861,-301,-1119,-878,-1764
936.3,3.872,-850,-303,-1105,-869,-1740
944.3,3.911,-839,-300,-1087,-861,-1748
952.3,3.95,-827,-302,-1076,-856,-1751
960.3,3.99,-816,-299,-1062,-839,-1734
968.3,4.029,-804,-300,-1047,-838,-1705
976.3,4.068,-792,-298,-1028,-825,-1703
984.3,4.108,-780,-299,-1021,-815,-1686
992.5,4.148,-784,-300,-1005,-810,-1684
1000.3,4.188,-772,-301,-991,-801,-1674
1008.3,4.228,-760,-303,-975,-796,-1660
1016.3,4.268,-748,-304,-964,-786,-1642
1024.3,4.308,-751,-297,-948,-781,-1628
1032.3,4.349,-723,-294,-933,-771,-1613
1040.3,4.389,-710,-296,-917,-766,-1603
1048.3,4.43,-714,-297,-906,-756,-1592
1056.3,4.47,-702,-294,-894,-751,-1565
1064.3,4.511,-689,-291,-870,-741,-1531
1072.3,4.553,-661,-289,-854,-728,-1520
1080.3,4.594,-664,-282,-843,-722,-1501
1088.3,4.635,-636,-279,-827,-721,-1479
1096.3,4.676,-639,-280,-811,-704,-1456
1104.3,4.718,-627,-278,-800,-698,-1429
1112.3,4.759,-615,-283,-800,-705,-1402
1120.3,4.801,-602,-280,-781,-696,-1391
1128.3,4.842,-594,-278,-769,-695,-1364
1136.3,4.884,-578,-279,-742,-670,-1358
1144.3,4.926,-566,-272,-727,-665,-1351
1153.3,4.969,-556,-270,-709,-654,-1331
1161.3,5.011,-548,-275,-711,-658,-1308
1169.3,5.053,-540,-277,-700,-653,-1286
1177.3,5.096,-524,-278,-689,-644,-1260
1185.3,5.138,-529,-276,-670,-640,-1242
1193.3,5.181,-521,-277,-652,-635,-1216
1201.3,5.223,-502,-271,-645,-631,-1182
1209.3,5.266,-502,-277,-639,-623,-1173
1217.3,5.309,-483,-274,-629,-619,-1160
1225.3,5.352,-476,-272,-619,-603,-1138
1233.3,5.396,-473,-274,-601,-607,-1117
1241.3,5.439,-463,-272,-600,-608,-1100
1249.3,5.483,-460,-278,-583,-600,-1080
1257.3,5.526,-454,-280,-577,-597,-1068
1265.3,5.569,-439,-282,-569,-594,-1039
1273.3,5.613,-433,-280,-560,-595,-1024
1281.3,5.657,-423,-282,-532,-576,-1016
1289.3,5.7,-422,-284,-527,-574,-1005
1297.3,5.744,-412,-282,-520,-571,-1010
1305.3,5.788,-411,-280,-516,-573,-1003
1313.3,5.834,-410,-287,-501,-567,-997
1321.3,5.878,-397,-289,-497,-565,-951
1329.3,5.922,-397,-292,-495,-568,-965
1337.3,5.966,-388,-294,-488,-562,-948
1345.3,6.011,-388,-293,-486,-569,-955
1353.3,6.056,-380,-299,-480,-564,-930
1361.3,6.1,-380,-298,-470,-563,-937
1369.3,6.145,-377,-301,-473,-567,-921
1377.3,6.19,-377,-308,-464,-566,-918
1385.3,6.235,-374,-311,-459,-569,-902
1393.3,6.281,-372,-310,-458,-565,-884
1401.3,6.326,-369,-315,-454,-570,-893
1409.3,6.372,-363,-316,-454,-571,-895
1417.3,6.417,-373,-317,-455,-577,-861
1425.3,6.463,-363,-321,-452,-571,-876
1433.3,6.508,-374,-325,-453,-584,-863
1441.3,6.554,-368,-331,-454,-589,-863
1449.3,6.6,-375,-334,-448,-593,-895
1457.3,6.646,-375,-341,-452,-597,-899
1465.3,6.692,-378,-346,-461,-604,-894
1473.3,6.739,-378,-346,-454,-607,-893
1481.3,6.785,-386,-353,-464,-621,-895
1489.3,6.831,-379,-360,-458,-613,-886
1497.3,6.878,-392,-366,-468,-627,-898
1505.3,6.924,-397,-370,-469,-635,-877
1513.3,6.971,-403,-373,-475,-655,-880
1521.3,7.017,-404,-378,-481,-658,-863
1529.3,7.064,-414,-384,-486,-670,-871
1537.3,7.111,-412,-396,-500,-675,-878
1545.3,7.158,-426,-401,-504,-696,-869
1554.3,7.206,-431,-405,-508,-689,-877
1562.3,7.254,-445,-411,-515,-711,-870
1570.3,7.301,-440,-418,-521,-724,-883
1578.3,7.348,-451,-422,-535,-730,-898
1586.3,7.396,-466,-433,-543,-737,-925
1594.3,7.443,-471,-441,-547,-751,-917
1602.3,7.491,-486,-446,-560,-762,-933
1610.3,7.539,-488,-452,-577,-769,-947
1618.3,7.587,-498,-461,-590,-788,-955
1626.3,7.635,-512,-470,-599,-800,-974
1634.3,7.684,-522,-475,-609,-812,-986
1642.3,7.732,-531,-481,-623,-828,-965
1650.3,7.781,-550,-490,-634,-836,-978
1658.3,7.829,-560,-500,-641,-857,-1006
1666.3,7.877,-566,-509,-660,-870,-1028
1674.3,7.926,-577,-511,-672,-891,-1010
1682.3,7.975,-592,-521,-688,-896,-1056
1690.3,8.024,-604,-530,-700,-914,-1035
1698.3,8.072,-619,-536,-716,-936,-1047
1706.3,8.122,-631,-546,-729,-942,-1027
1714.3,8.172,-636,-548,-731,-948,-1039
1722.3,8.221,-648,-554,-752,-971,-1064
1730.3,8.27,-665,-561,-766,-978,-1062
1738.3,8.32,-678,-571,-772,-1001,-1072
1746.3,8.369,-683,-577,-791,-1008,-1071
1754.3,8.419,-688,-583,-814,-1000,-1102
1762.3,8.469,-706,-586,-821,-1024,-1126
1770.3,8.519,-716,-596,-829,-1048,-1130
1778.3,8.569,-726,-603,-852,-1056,-1119
1786.3,8.619,-737,-610,-877,-1081,-1165
1794.3,8.67,-755,-616,-869,-1074,-1174
1802.3,8.721,-766,-623,-894,-1099,-1189
1810.3,8.771,-774,-630,-903,-1108,-1196
1818.3,8.821,-781,-637,-928,-1117,-1207
1826.3,8.872,-801,-640,-938,-1127,-1259
1834.3,8.923,-809,-651,-947,-1153,-1259
1842.3,8.974,-817,-654,-942,-1147,-1277
1850.3,9.025,-833,-661,-968,-1157,-1270
1858.3,9.076,-858,-668,-995,-1168,-1316
1866.3,9.127,-866,-676,-1006,-1179,-1346
1874.3,9.179,-875,-679,-1017,-1190,-1345
1882.3,9.231,-884,-682,-1028,-1201,-1389
1890.3,9.282,-894,-690,-1056,-1212,-1401
1898.3,9.334,-903,-689,-1068,-1208,-1434
1906.3,9.386,-913,-701,-1064,-1203,-1443
1914.3,9.437,-907,-704,-1093,-1247,-1500
1922.3,9.489,-917,-712,-1090,-1244,-1494
1930.3,9.541,-944,-716,-1103,-1256,-1533
1938.3,9.594,-938,-719,-1132,-1236,-1599
1946.3,9.646,-937,-723,-1129,-1249,-1563
1955.3,9.7,-957,-727,-1160,-1279,-1622
1963.3,9.752,-972,-731,-1158,-1276,-1634
1971.3,9.805,-975,-735,-1172,-1274,-1683
1979.3,9.857,-991,-743,-1187,-1287,-1672
1987.3,9.91,-998,-751,-1201,-1280,-1746
1995.3,9.963,-1014,-751,-1216,-1274,-1752
2003.3,10.02,-1022,-755,-1214,-1280,-1771
2011.3,10.07,-1022,-759,-1245,-1286,-1830
2019.3,10.12,-1042,-764,-1245,-1304,-1829
2027.3,10.18,-1054,-760,-1276,-1302,-1829
2035.3,10.23,-1059,-764,-1275,-1305,-1862
2043.3,10.28,-1055,-768,-1275,-1303,-1902
2051.3,10.34,-1064,-776,-1307,-1310,-1935
2059.3,10.39,-1073,-773,-1307,-1305,-1953
2067.3,10.45,-1078,-773,-1323,-1300,-1963
2075.3,10.5,-1079,-785,-1323,-1314,-1973
2083.3,10.55,-1084,-790,-1324,-1330,-2016
2091.3,10.61,-1085,-786,-1357,-1317,-2015
2099.3,10.66,-1111,-783,-1373,-1316,-2103
2107.3,10.72,-1108,-795,-1374,-1306,-2123
2115.3,10.77,-1105,-800,-1363,-1308,-2107
2123.3,10.83,-1115,-792,-1376,-1319,-2147
2131.3,10.88,-1117,-809,-1373,-1330,-2188
2139.3,10.94,-1131,-801,-1394,-1315,-2226
2147.3,10.99,-1129,-806,-1412,-1312,-2210
2155.3,11.05,-1147,-819,-1417,-1340,-2277
2163.3,11.1,-1185,-811,-1451,-1330,-2316
2171.3,11.16,-1171,-824,-1433,-1361,-2324
2179.3,11.21,-1173,-825,-1474,-1361,-2398
2187.3,11.27,-1192,-833,-1480,-1370,-2401
2195.3,11.33,-1178,-842,-1494,-1374,-2444
2203.3,11.38,-1228,-839,-1500,-1392,-2532
2211.3,11.44,-1207,-847,-1490,-1397,-2504
2219.3,11.49,-1221,-856,-1512,-1394,-2525
2227.3,11.55,-1244,-865,-1526,-1402,-2622
2235.3,11.61,-1234,-866,-1548,-1419,-2643
2243.3,11.66,-1257,-874,-1555,-1396,-2704
2251.3,11.72,-1243,-875,-1569,-1416,-2730
2259.3,11.78,-1239,-872,-1583,-1421,-2779
2267.3,11.83,-1287,-885,-1585,-1430,-2790
2276.3,11.89,-1277,-890,-1594,-1445,-2873
2284.3,11.95,-1278,-895,-1588,-1446,-2911
2292.3,12.01,-1290,-896,-1579,-1443,-2998
2300.3,12.06,-1286,-896,-1629,-1464,-3013
2308.3,12.12,-1303,-893,-1636,-1445,-3072
2316.3,12.18,-1296,-902,-1642,-1422,-3100
2324.3,12.23,-1289,-915,-1628,-1407,-3160
2332.3,12.29,-1270,-903,-1641,-1424,-3224
2340.3,12.35,-1268,-892,-1621,-1393,-3251
2348.3,12.41,-1235,-893,-1649,-1362,-3284
2356.3,12.47,-1246,-878,-1642,-1363,-3336
2364.3,12.52,-1209,-858,-1657,-1364,-3389
2372.3,12.58,-1236,-859,-1712,-1509,-3494
2380.3,12.64,-1436,-920,-1902,-1865,-3466
2388.3,12.7,-1737,-1085,-2168,-2439,-3539
2396.3,12.76,-1708,-1137,-2154,-2376,-3592
2404.3,12.82,-1430,-942,-1840,-1855,-3690
2412.3,12.87,-1613,-1051,-2023,-2034,-3663
2420.3,12.93,-1636,-1055,-2097,-2119,-3709
2428.3,12.99,-1647,-1044,-2147,-2167,-3647
2436.3,13.05,-1701,-1065,-2093,-2180,-3529
2444.3,13.11,-1688,-1037,-2087,-2105,-3574
2452.3,13.17,-1686,-1090,-2121,-2162,-3631
2460.3,13.23,-1689,-1079,-2143,-2190,-3668
2468.3,13.29,-1711,-1083,-2205,-2239,-3740
2476.3,13.35,-1766,-1088,-2207,-2304,-3728
2484.3,13.41,-1776,-1092,-2240,-2352,-3804
2492.3,13.47,-1750,-1097,-2274,-2337,-3898
2500.3,13.53,-1844,-1133,-2308,-2417,-3918
2508.3,13.59,-1822,-1154,-2341,-2466,-4017
2516.3,13.65,-1893,-1158,-2359,-2498,-4063
2524.3,13.71,-1882,-1147,-2392,-2514,-4061
2532.3,13.77,-1933,-1151,-2409,-2579,-4092
2540.3,13.83,-1890,-1172,-2475,-2595,-4223
2548.3,13.89,-1900,-1176,-2491,-2643,-4278
2556.3,13.95,-1922,-1196,-2509,-2723,-4317
2564.3,14.01,-1988,-1201,-2525,-2739,-4311
2572.3,14.07,-1997,-1221,-2606,-2787,-4394
2580.3,14.13,-2035,-1225,-2607,-2851,-4509
2588.3,14.19,-2036,-1229,-2592,-2850,-4472
2596.3,14.25,-2061,-1234,-2720,-2930,-4622
2604.3,14.31,-2103,-1254,-2704,-2993,-4638
2612.3,14.37,-2148,-1242,-2737,-2977,-4713
2620.3,14.43,-2161,-1278,-2817,-3088,-4718
2628.3,14.5,-2190,-1266,-2897,-3104,-4794
2636.3,14.56,-2171,-1286,-2913,-3135,-4920
2644.3,14.62,-2200,-1322,-2929,-3230,-4855
2652.3,14.68,-2244,-1310,-2992,-3245,-5006
2660.3,14.74,-2241,-1282,-2976,-3308,-5032
2668.3,14.8,-2285,-1318,-3055,-3339,-5106
2677.3,14.86,-2363,-1355,-3153,-3387,-5186
2685.3,14.93,-2344,-1327,-3072,-3418,-5261
2693.3,14.99,-2420,-1378,-3151,-3448,-5271
2701.3,15.05,-2400,-1382,-3262,-3543,-5393
2709.3,15.11,-2460,-1370,-3325,-3557,-5339
2717.3,15.17,-2536,-1390,-3323,-3635,-5461
2725.3,15.23,-2500,-1394,-3370,-3649,-5550
2733.3,15.3,-2527,-1397,-3480,-3663,-5544
2741.3,15.36,-2571,-1401,-3463,-3677,-5634
2749.3,15.42,-2663,-1437,-3493,-3755,-5709
2757.3,15.48,-2642,-1424,-3587,-3768,-5718
2765.3,15.55,-2749,-1476,-3601,-3781,-5791
2773.3,15.61,-2744,-1511,-3679,-3795,-5816
2781.3,15.67,-2804,-1515,-3692,-3808,-5858
2789.3,15.73,-2798,-1550,-3770,-3885,-5979
2797.3,15.8,-2889,-1554,-3783,-3834,-5940
2805.3,15.86,-2884,-1557,-3732,-3911,-6044
2813.3,15.92,-2942,-1576,-3809,-3860,-6118
2821.3,15.98,-2985,-1628,-3822,-3936,-6174
2829.3,16.05,-3091,-1695,-3899,-3949,-6247
2837.3,16.11,-3149,-1714,-3911,-3961,-6335
2845.3,16.18,-3175,-1797,-3924,-3973,-6375
2853.3,16.24,-3282,-1864,-4000,-4049,-6399
2861.3,16.3,-3356,-1884,-4012,-4061,-6439
2869.3,16.36,-3365,-1935,-4088,-4009,-6543
2877.3,16.43,-3439,-2066,-4100,-4085,-6678
2885.3,16.49,-3512,-2069,-4112,-4096,-6734
2893.3,16.55,-3522,-2136,-4123,-4107,-6805
2901.3,16.62,-3531,-2203,-4134,-4118,-6748
2909.3,16.68,-3604,-2333,-4146,-4130,-6804
2917.3,16.75,-3613,-2336,-4157,-4141,-6971
2925.3,16.81,-3622,-2339,-4232,-4152,-6976
2933.3,16.87,-3631,-2406,-4178,-4162,-6935
2941.3,16.94,-3639,-2409,-4189,-4109,-7005
2949.3,17.0,-3648,-2411,-4200,-4119,-6995
2957.3,17.06,-3656,-2478,-4210,-4129,-7018
2965.3,17.13,-3665,-2481,-4220,-4140,-6976
2973.3,17.19,-3672,-2483,-4230,-4149,-7061
2981.3,17.26,-3681,-2486,-4240,-4095,-6939
2989.3,17.32,-3688,-2488,-4250,-4105,-7088
2997.3,17.39,-3696,-2555,-4259,-4114,-7092
3005.3,17.45,-3704,-2557,-4204,-4124,-7050
3013.3,17.51,-3711,-2559,-4214,-4133,-7151
3021.3,17.58,-3719,-2562,-4287,-4142,-7155
3029.3,17.64,-3726,-2564,-4296,-4151,-7207
3037.3,17.71,-3733,-2566,-4304,-4160,-7196
3045.3,17.77,-3804,-2632,-4313,-4168,-7280
3053.3,17.84,-3747,-2634,-4321,-4176,-7315
3061.3,17.9,-3818,-2637,-4265,-4185,-7431
3069.3,17.97,-3824,-2639,-4337,-4193,-7418
3078.3,18.03,-3832,-2641,-4283,-4138,-7506
3086.3,18.1,-3838,-2643,-4354,-4210,-7493
3094.3,18.16,-3844,-2645,-4362,-4218,-7544
3102.3,18.23,-3850,-2647,-4369,-4161,-7547
3110.3,18.29,-3856,-2649,-4377,-4232,-7421
3118.3,18.36,-3862,-2651,-4384,-4176,-7439
3126.3,18.42,-3868,-2652,-4327,-4247,-7507
3134.3,18.49,-3873,-2654,-4333,-4189,-7588
3142.3,18.55,-3879,-2720,-4340,-4260,-7654
3150.3,18.62,-3948,-2722,-4347,-4267,-7736
3158.3,18.69,-3953,-2723,-4353,-4273,-7769
3166.3,18.75,-3958,-2725,-4359,-4280,-7850
3174.3,18.82,-3963,-2790,-4301,-4222,-7916
3182.3,18.88,-3968,-2792,-4307,-4228,-8012
3190.3,18.95,-3973,-2793,-4313,-4170,-8029
3198.3,19.01,-3977,-2795,-4318,-4175,-8109
3206.3,19.08,-3981,-2796,-4324,-4101,-8189
3214.3,19.15,-3986,-2798,-4329,-4090,-8222
3222.3,19.21,-3990,-2799,-4334,-4079,-8286
3230.3,19.28,-3994,-2800,-4339,-4052,-8335
3238.3,19.35,-3998,-2801,-4344,-4025,-8366
3246.3,19.41,-4002,-2803,-4349,-4030,-8334
3254.3,19.48,-4005,-2804,-4353,-4035,-8350
3262.3,19.55,-4009,-2805,-4357,-4007,-8301
3270.3,19.61,-4013,-2806,-4362,-4012,-8300
3278.3,19.68,-4016,-2807,-4366,-4015,-8330
3286.3,19.74,-4019,-2808,-4370,-4020,-8362
3294.3,19.81,-4022,-2809,-4374,-4024,-8376
3302.3,19.88,-4025,-2810,-4377,-4027,-8406
3310.3,19.95,-4028,-2811,-4381,-4015,-8453
3318.3,20.01,-4031,-2812,-4384,-4002,-8499
3326.3,20.08,-4033,-2813,-4387,-4006,-8546
3334.3,20.15,-4036,-2813,-4390,-4009,-8624
3342.3,20.22,-4038,-2814,-4393,-4012,-8669
3350.3,20.28,-4040,-2815,-4396,-4015,-8700
3358.3,20.35,-4043,-2816,-4399,-4001,-8729
3366.3,20.42,-4045,-2816,-4401,-4020,-8791
3374.3,20.48,-4046,-2817,-4403,-4022,-8788
3382.3,20.55,-4048,-2817,-4406,-4024,-8834
3390.3,20.62,-4050,-2818,-4407,-4026,-8879
3398.3,20.69,-4051,-2818,-4537,-4524,-8861
3406.3,20.76,-4053,-2819,-4539,-4526,-8890
3414.3,20.83,-4054,-2819,-4541,-4528,-8919
3422.3,20.89,-4055,-2820,-4542,-4529,-8948
3430.3,20.96,-4056,-2820,-4544,-4531,-8961
3438.3,21.03,-4057,-2820,-4545,-4532,-9037
3446.3,21.1,-4058,-2820,-4546,-4533,-9067
3454.3,21.17,-99999,-99999,-4547,-4534,-9080
